Time	Amplitude - V_C	Incertezza
0	-2.54526	0.0043
0.004	-2.2636	0.0043
0.008	-1.97646	0.0043
0.012	-1.68481	0.0043
0.016	-1.38833	0.0043
0.02	-1.0883	0.0043
0.024	-0.785375	0.0043
0.028	-0.480191	0.0043
0.032	-0.17404	0.0043
0.036	0.133077	0.0043
0.04	0.439229	0.0043
0.044	0.744736	0.0043
0.048	1.04766	0.0043
0.052	1.34866	0.0043
0.056	1.64515	0.0043
0.06	1.93712	0.0043
0.064	2.22426	0.0043
0.068	2.50463	0.0043
0.072	2.7792	0.0043
0.076	3.04507	0.0043
0.08	3.30321	0.0043
0.084	3.552	0.0043
0.088	3.79209	0.0043
0.092	4.02252	0.0043
0.096	4.24198	0.0043
0.1	4.45049	0.0043
0.104	4.64772	0.0043
0.108	4.83335	0.0043
0.112	5.00674	0.0043
0.116	5.16755	0.0043
0.12	5.31515	0.0043
0.124	5.44954	0.0043
0.128	5.57071	0.0043
0.132	5.67803	0.0043
0.136	5.77085	0.0043
0.14	5.84981	0.0043
0.144	5.91458	0.0043
0.148	5.96325	0.0043
0.152	5.99837	0.0043
0.156	6.019	0.0043
0.16	6.02448	0.0043
0.164	6.01384	0.0043
0.168	5.98838	0.0043
0.172	5.94874	0.0043
0.176	5.89396	0.0043
0.18	5.8237	0.0043
0.184	5.73862	0.0043
0.188	5.63968	0.0043
0.192	5.52592	0.0043
0.196	5.39959	0.0043
0.2	5.25779	0.0043
0.204	5.10374	0.0043
0.208	4.93712	0.0043
0.212	4.75762	0.0043
0.216	4.56587	0.0043
0.22	4.36283	0.0043
0.224	4.14949	0.0043
0.228	3.92487	0.0043
0.232	3.69058	0.0043
0.236	3.44694	0.0043
0.24	3.19396	0.0043
0.244	2.93389	0.0043
0.248	2.66544	0.0043
0.252	2.3899	0.0043
0.256	2.10824	0.0043
0.26	1.82078	0.0043
0.264	1.52849	0.0043
0.268	1.232	0.0043
0.272	0.931972	0.0043
0.276	0.629043	0.0043
0.28	0.323858	0.0043
0.284	0.018029	0.0043
0.288	-0.288444	0.0043
0.292	-0.594273	0.0043
0.296	-0.900424	0.0043
0.3	-1.20335	0.0043
0.304	-1.50306	0.0043
0.308	-1.7989	0.0043
0.312	-2.09022	0.0043
0.316	-2.37543	0.0043
0.32	-2.65451	0.0043
0.324	-2.92714	0.0043
0.328	-3.19301	0.0043
0.332	-3.44889	0.0043
0.336	-3.69639	0.0043
0.34	-3.93325	0.0043
0.344	-4.16077	0.0043
0.348	-4.37766	0.0043
0.352	-4.58391	0.0043
0.356	-4.77727	0.0043
0.36	-4.95999	0.0043
0.364	-5.12886	0.0043
0.368	-5.28484	0.0043
0.372	-5.42825	0.0043
0.376	-5.55748	0.0043
0.38	-5.67381	0.0043
0.384	-5.77404	0.0043
0.388	-5.86137	0.0043
0.392	-5.93388	0.0043
0.396	-5.99125	0.0043
0.4	-6.03379	0.0043
0.404	-6.06118	0.0043
0.408	-6.07375	0.0043
0.412	-6.07053	0.0043
0.416	-6.05248	0.0043
0.42	-6.01896	0.0043
0.424	-5.96998	0.0043
0.428	-5.90617	0.0043
0.432	-5.82689	0.0043
0.436	-5.73311	0.0043
0.44	-5.62483	0.0043
0.444	-5.50301	0.0043
0.448	-5.36637	0.0043
0.452	-5.21652	0.0043
0.456	-5.05345	0.0043
0.46	-4.87846	0.0043
0.464	-4.69058	0.0043
0.468	-4.49109	0.0043
0.472	-4.28098	0.0043
0.476	-4.05926	0.0043
0.48	-3.82787	0.0043
0.484	-3.58714	0.0043
0.488	-3.33706	0.0043
0.492	-3.07796	0.0043
0.496	-2.81177	0.0043
0.5	-2.53914	0.0043
0.504	-2.25941	0.0043
0.508	-1.97388	0.0043
0.512	-1.68288	0.0043
0.516	-1.38833	0.0043
0.52	-1.08895	0.0043
0.524	-0.786987	0.0043
0.528	-0.484381	0.0043
0.532	-0.178552	0.0043
0.536	0.127277	0.0043
0.54	0.432783	0.0043
0.544	0.737968	0.0043
0.548	1.04058	0.0043
0.552	1.3406	0.0043
0.556	1.63644	0.0043
0.56	1.92874	0.0043
0.564	2.21491	0.0043
0.568	2.49561	0.0043
0.572	2.76889	0.0043
0.576	3.03541	0.0043
0.58	3.29322	0.0043
0.584	3.5433	0.0043
0.588	3.78404	0.0043
0.592	4.01317	0.0043
0.596	4.23393	0.0043
0.6	4.44276	0.0043
0.604	4.64063	0.0043
0.608	4.82658	0.0043
0.612	5.00061	0.0043
0.616	5.16207	0.0043
0.62	5.30999	0.0043
0.624	5.44535	0.0043
0.628	5.56653	0.0043
0.632	5.67384	0.0043
0.636	5.7673	0.0043
0.64	5.8469	0.0043
0.644	5.91168	0.0043
0.648	5.96196	0.0043
0.652	5.99741	0.0043
0.656	6.01771	0.0043
0.66	6.02351	0.0043
0.664	6.01384	0.0043
0.668	5.98838	0.0043
0.672	5.94939	0.0043
0.676	5.8946	0.0043
0.68	5.82499	0.0043
0.684	5.74055	0.0043
0.688	5.64194	0.0043
0.692	5.5285	0.0043
0.696	5.40088	0.0043
0.7	5.26069	0.0043
0.704	5.10632	0.0043
0.708	4.93938	0.0043
0.712	4.76052	0.0043
0.716	4.56877	0.0043
0.72	4.36606	0.0043
0.724	4.15271	0.0043
0.728	3.92777	0.0043
0.732	3.6938	0.0043
0.736	3.44984	0.0043
0.74	3.19751	0.0043
0.744	2.93647	0.0043
0.748	2.66802	0.0043
0.752	2.39248	0.0043
0.756	2.11082	0.0043
0.76	1.82336	0.0043
0.764	1.53139	0.0043
0.768	1.23426	0.0043
0.772	0.934228	0.0043
0.776	0.631621	0.0043
0.78	0.326436	0.0043
0.784	0.0202849	0.0043
0.788	-0.287477	0.0043
0.792	-0.592984	0.0043
0.796	-0.89849	0.0043
0.8	-1.2011	0.0043
0.804	-1.5008	0.0043
0.808	-1.79664	0.0043
0.812	-2.08829	0.0043
0.816	-2.37414	0.0043
0.82	-2.65386	0.0043
0.824	-2.92714	0.0043
0.828	-3.19108	0.0043
0.832	-3.44792	0.0043
0.836	-3.69478	0.0043
0.84	-3.93325	0.0043
0.844	-4.16077	0.0043
0.848	-4.37701	0.0043
0.852	-4.5823	0.0043
0.856	-4.7763	0.0043
0.86	-4.95806	0.0043
0.864	-5.12789	0.0043
0.868	-5.28355	0.0043
0.872	-5.42728	0.0043
0.876	-5.55651	0.0043
0.88	-5.6722	0.0043
0.884	-5.77404	0.0043
0.888	-5.86041	0.0043
0.892	-5.93324	0.0043
0.896	-5.9906	0.0043
0.9	-6.03314	0.0043
0.904	-6.06054	0.0043
0.908	-6.07246	0.0043
0.912	-6.0702	0.0043
0.916	-6.05184	0.0043
0.92	-6.01864	0.0043
0.924	-5.96998	0.0043
0.928	-5.90617	0.0043
0.932	-5.82721	0.0043
0.936	-5.73343	0.0043
0.94	-5.62547	0.0043
0.944	-5.50269	0.0043
0.948	-5.36637	0.0043
0.952	-5.21652	0.0043
0.956	-5.05377	0.0043
0.96	-4.87846	0.0043
0.964	-4.69058	0.0043
0.968	-4.49142	0.0043
0.972	-4.28065	0.0043
0.976	-4.0599	0.0043
0.98	-3.82852	0.0043
0.984	-3.58778	0.0043
0.988	-3.33771	0.0043
0.992	-3.07957	0.0043
0.996	-2.81306	0.0043
1	-2.5401	0.0043
1.004	-2.26038	0.0043
1.008	-1.97485	0.0043
1.012	-1.68385	0.0043
1.016	-1.38898	0.0043
1.02	-1.08991	0.0043
1.024	-0.788598	0.0043
1.028	-0.485025	0.0043
1.032	-0.179197	0.0043
1.036	0.126632	0.0043
1.04	0.432139	0.0043
1.044	0.736357	0.0043
1.048	1.03929	0.0043
1.052	1.33932	0.0043
1.056	1.63548	0.0043
1.06	1.92681	0.0043
1.064	2.21362	0.0043
1.068	2.494	0.0043
1.072	2.76792	0.0043
1.076	3.03347	0.0043
1.08	3.2929	0.0043
1.084	3.54233	0.0043
1.088	3.7821	0.0043
1.092	4.01253	0.0043
1.096	4.23264	0.0043
1.1	4.44179	0.0043
1.104	4.63999	0.0043
1.108	4.8253	0.0043
1.112	4.99965	0.0043
1.116	5.1611	0.0043
1.12	5.30935	0.0043
1.124	5.44438	0.0043
1.128	5.56588	0.0043
1.132	5.67384	0.0043
1.136	5.7673	0.0043
1.14	5.84658	0.0043
1.144	5.91168	0.0043
1.148	5.96099	0.0043
1.152	5.99741	0.0043
1.156	6.01739	0.0043
1.16	6.02351	0.0043
1.164	6.01384	0.0043
1.168	5.98935	0.0043
1.172	5.94939	0.0043
1.176	5.89525	0.0043
1.18	5.82596	0.0043
1.184	5.74055	0.0043
1.188	5.64194	0.0043
1.192	5.52882	0.0043
1.196	5.40184	0.0043
1.2	5.26133	0.0043
1.204	5.10632	0.0043
1.208	4.9397	0.0043
1.212	4.76084	0.0043
1.216	4.57006	0.0043
1.22	4.3667	0.0043
1.224	4.15336	0.0043
1.228	3.92874	0.0043
1.232	3.69477	0.0043
1.236	3.45113	0.0043
1.24	3.19815	0.0043
1.244	2.93776	0.0043
1.248	2.66899	0.0043
1.252	2.39345	0.0043
1.256	2.11211	0.0043
1.26	1.82497	0.0043
1.264	1.53203	0.0043
1.268	1.23555	0.0043
1.272	0.934872	0.0043
1.276	0.632588	0.0043
1.28	0.328047	0.0043
1.284	0.0212517	0.0043
1.288	-0.285222	0.0043
1.292	-0.591373	0.0043
1.296	-0.896556	0.0043
1.3	-1.20045	0.0043
1.304	-1.50048	0.0043
1.308	-1.79567	0.0043
1.312	-2.08732	0.0043
1.316	-2.37317	0.0043
1.32	-2.6529	0.0043
1.324	-2.92553	0.0043
1.328	-3.19011	0.0043
1.332	-3.44663	0.0043
1.336	-3.69413	0.0043
1.34	-3.93229	0.0043
1.344	-4.15981	0.0043
1.348	-4.37701	0.0043
1.352	-4.5823	0.0043
1.356	-4.77662	0.0043
1.36	-4.95806	0.0043
1.364	-5.12789	0.0043
1.368	-5.28387	0.0043
1.372	-5.42663	0.0043
1.376	-5.55715	0.0043
1.38	-5.6722	0.0043
1.384	-5.77372	0.0043
1.388	-5.86073	0.0043
1.392	-5.93292	0.0043
1.396	-5.99125	0.0043
1.4	-6.03314	0.0043
1.404	-6.06118	0.0043
1.408	-6.0731	0.0043
1.412	-6.07053	0.0043
1.416	-6.05184	0.0043
1.42	-6.01864	0.0043
1.424	-5.9703	0.0043
1.428	-5.90585	0.0043
1.432	-5.82754	0.0043
1.436	-5.73343	0.0043
1.44	-5.6258	0.0043
1.444	-5.50333	0.0043
1.448	-5.36669	0.0043
1.452	-5.21748	0.0043
1.456	-5.05474	0.0043
1.46	-4.8791	0.0043
1.464	-4.69154	0.0043
1.468	-4.49238	0.0043
1.472	-4.28194	0.0043
1.476	-4.06055	0.0043
1.48	-3.82884	0.0043
1.484	-3.58778	0.0043
1.488	-3.33867	0.0043
1.492	-3.0799	0.0043
1.496	-2.8137	0.0043
1.5	-2.54075	0.0043
1.504	-2.26006	0.0043
1.508	-1.97517	0.0043
1.512	-1.68481	0.0043
1.516	-1.38962	0.0043
1.52	-1.0912	0.0043
1.524	-0.789243	0.0043
1.528	-0.485992	0.0043
1.532	-0.180486	0.0043
1.536	0.125343	0.0043
1.54	0.431494	0.0043
1.544	0.73539	0.0043
1.548	1.03832	0.0043
1.552	1.33803	0.0043
1.556	1.63451	0.0043
1.56	1.92616	0.0043
1.564	2.21233	0.0043
1.568	2.49271	0.0043
1.572	2.76696	0.0043
1.576	3.03379	0.0043
1.58	3.29193	0.0043
1.584	3.54169	0.0043
1.588	3.78146	0.0043
1.592	4.0122	0.0043
1.596	4.23167	0.0043
1.6	4.44179	0.0043
1.604	4.63934	0.0043
1.608	4.82562	0.0043
1.612	4.99868	0.0043
1.616	5.1611	0.0043
1.62	5.30871	0.0043
1.624	5.44406	0.0043
1.628	5.56556	0.0043
1.632	5.67352	0.0043
1.636	5.76698	0.0043
1.64	5.84626	0.0043
1.644	5.91136	0.0043
1.648	5.96131	0.0043
1.652	5.99709	0.0043
1.656	6.01803	0.0043
1.66	6.02287	0.0043
1.664	6.01352	0.0043
1.668	5.98935	0.0043
1.672	5.94971	0.0043
1.676	5.89525	0.0043
1.68	5.82596	0.0043
1.684	5.74152	0.0043
1.688	5.64194	0.0043
1.692	5.52946	0.0043
1.696	5.40216	0.0043
1.7	5.26198	0.0043
1.704	5.10793	0.0043
1.708	4.94067	0.0043
1.712	4.76149	0.0043
1.716	4.5707	0.0043
1.72	4.36799	0.0043
1.724	4.154	0.0043
1.728	3.92938	0.0043
1.732	3.69573	0.0043
1.736	3.45178	0.0043
1.74	3.19912	0.0043
1.744	2.9384	0.0043
1.748	2.67028	0.0043
1.752	2.39442	0.0043
1.756	2.11243	0.0043
1.76	1.82594	0.0043
1.764	1.53429	0.0043
1.768	1.23651	0.0043
1.772	0.936806	0.0043
1.776	0.633877	0.0043
1.78	0.328692	0.0043
1.784	0.0225407	0.0043
1.788	-0.284255	0.0043
1.792	-0.59105	0.0043
1.796	-0.895912	0.0043
1.8	-1.19852	0.0043
1.804	-1.49887	0.0043
1.808	-1.79471	0.0043
1.812	-2.08635	0.0043
1.816	-2.37253	0.0043
1.82	-2.65193	0.0043
1.824	-2.92424	0.0043
1.828	-3.18882	0.0043
1.832	-3.44567	0.0043
1.836	-3.69349	0.0043
1.84	-3.931	0.0043
1.844	-4.15852	0.0043
1.848	-4.37605	0.0043
1.852	-4.58165	0.0043
1.856	-4.77566	0.0043
1.86	-4.95774	0.0043
1.864	-5.12693	0.0043
1.868	-5.28323	0.0043
1.872	-5.42631	0.0043
1.876	-5.55651	0.0043
1.88	-5.67124	0.0043
1.884	-5.7734	0.0043
1.888	-5.85976	0.0043
1.892	-5.9326	0.0043
1.896	-5.99028	0.0043
1.9	-6.03314	0.0043
1.904	-6.06021	0.0043