Time	Amplitude C	Incertezza
0	-6.07375	4.30E-03
0.004	-6.03153	4.30E-03
0.008	-5.94388	4.30E-03
0.012	-5.81078	4.30E-03
0.016	-5.63321	4.30E-03
0.02	-5.41246	4.30E-03
0.024	-5.15142	4.30E-03
0.028	-4.85107	4.30E-03
0.032	-4.51333	4.30E-03
0.036	-4.14111	4.30E-03
0.04	-3.7357	4.30E-03
0.044	-3.30129	4.30E-03
0.048	-2.84013	4.30E-03
0.052	-2.35448	4.30E-03
0.056	-1.84852	4.30E-03
0.06	-1.32646	4.30E-03
0.064	-0.791498	4.30E-03
0.068	-0.24945	4.30E-03
0.072	0.29711	4.30E-03
0.076	0.842382	4.30E-03
0.08	1.38121	4.30E-03
0.084	1.90779	4.30E-03
0.088	2.41794	4.30E-03
0.092	2.9065	4.30E-03
0.096	3.36992	4.30E-03
0.1	3.80305	4.30E-03
0.104	4.20428	4.30E-03
0.108	4.56877	4.30E-03
0.112	4.89587	4.30E-03
0.116	5.18399	4.30E-03
0.12	5.42891	4.30E-03
0.124	5.63195	4.30E-03
0.128	5.79083	4.30E-03
0.132	5.90588	4.30E-03
0.136	5.97614	4.30E-03
0.14	6.00031	4.30E-03
0.144	5.97968	4.30E-03
0.148	5.91362	4.30E-03
0.152	5.80082	4.30E-03
0.156	5.64516	4.30E-03
0.16	5.44535	4.30E-03
0.164	5.20558	4.30E-03
0.168	4.92488	4.30E-03
0.172	4.60712	4.30E-03
0.176	4.25326	4.30E-03
0.18	3.86654	4.30E-03
0.184	3.44823	4.30E-03
0.188	3.00189	4.30E-03
0.192	2.53106	4.30E-03
0.196	2.03702	4.30E-03
0.2	1.52558	4.30E-03
0.204	0.999325	4.30E-03
0.208	0.461787	4.30E-03
0.212	-0.0812284	4.30E-03
0.216	-0.626499	4.30E-03
0.22	-1.16758	4.30E-03
0.224	-1.7006	4.30E-03
0.228	-2.21913	4.30E-03
0.232	-2.7196	4.30E-03
0.236	-3.19494	4.30E-03
0.24	-3.64354	4.30E-03
0.244	-4.06055	4.30E-03
0.248	-4.44372	4.30E-03
0.252	-4.78984	4.30E-03
0.256	-5.09663	4.30E-03
0.26	-5.36218	4.30E-03
0.264	-5.58519	4.30E-03
0.268	-5.76469	4.30E-03
0.272	-5.8994	4.30E-03
0.276	-5.98899	4.30E-03
0.28	-6.03282	4.30E-03
0.284	-6.03121	4.30E-03
0.288	-5.98351	4.30E-03
0.292	-5.88909	4.30E-03
0.296	-5.75019	4.30E-03
0.3	-5.56747	4.30E-03
0.304	-5.34123	4.30E-03
0.308	-5.07569	4.30E-03
0.312	-4.77018	4.30E-03
0.316	-4.42857	4.30E-03
0.32	-4.05314	4.30E-03
0.324	-3.64483	4.30E-03
0.328	-3.20783	4.30E-03
0.332	-2.74377	4.30E-03
0.336	-2.25651	4.30E-03
0.34	-1.74991	4.30E-03
0.344	-1.2272	4.30E-03
0.348	-0.692563	4.30E-03
0.352	-0.15116	4.30E-03
0.356	0.394112	4.30E-03
0.36	0.935839	4.30E-03
0.364	1.47112	4.30E-03
0.368	1.99545	4.30E-03
0.372	2.50076	4.30E-03
0.376	2.98384	4.30E-03
0.38	3.44114	4.30E-03
0.384	3.86815	4.30E-03
0.388	4.26164	4.30E-03
0.392	4.62033	4.30E-03
0.396	4.94002	4.30E-03
0.4	5.21976	4.30E-03
0.404	5.45792	4.30E-03
0.408	5.65257	4.30E-03
0.412	5.80372	4.30E-03
0.416	5.91072	4.30E-03
0.42	5.97227	4.30E-03
0.424	5.98935	4.30E-03
0.428	5.96002	4.30E-03
0.432	5.8859	4.30E-03
0.436	5.76569	4.30E-03
0.44	5.6023	4.30E-03
0.444	5.39604	4.30E-03
0.448	5.14854	4.30E-03
0.452	4.86171	4.30E-03
0.456	4.53783	4.30E-03
0.46	4.17785	4.30E-03
0.464	3.78597	4.30E-03
0.468	3.36348	4.30E-03
0.472	2.91327	4.30E-03
0.476	2.43792	4.30E-03
0.48	1.94131	4.30E-03
0.484	1.42697	4.30E-03
0.488	0.898456	4.30E-03
0.492	0.360596	4.30E-03
0.496	-0.183064	4.30E-03
0.5	-0.727368	4.30E-03
0.504	-1.26748	4.30E-03
0.508	-1.79696	4.30E-03
0.512	-2.31194	4.30E-03
0.516	-2.80758	4.30E-03
0.52	-3.27809	4.30E-03
0.524	-3.72088	4.30E-03
0.528	-4.13209	4.30E-03
0.532	-4.50882	4.30E-03
0.536	-4.84752	4.30E-03
0.54	-5.14658	4.30E-03
0.544	-5.4044	4.30E-03
0.548	-5.62	4.30E-03
0.552	-5.79112	4.30E-03
0.556	-5.91745	4.30E-03
0.56	-5.99931	4.30E-03
0.564	-6.03475	4.30E-03
0.568	-6.02444	4.30E-03
0.572	-5.96837	4.30E-03
0.576	-5.86556	4.30E-03
0.58	-5.71829	4.30E-03
0.584	-5.52718	4.30E-03
0.588	-5.29418	4.30E-03
0.592	-5.02155	4.30E-03
0.596	-4.70927	4.30E-03
0.6	-4.36122	4.30E-03
0.604	-3.97966	4.30E-03
0.608	-3.56555	4.30E-03
0.612	-3.12372	4.30E-03
0.616	-2.65515	4.30E-03
0.62	-2.16434	4.30E-03
0.624	-1.6542	4.30E-03
0.628	-1.12923	4.30E-03
0.632	-0.593306	4.30E-03
0.636	-0.0512578	4.30E-03
0.64	0.494014	4.30E-03
0.644	1.03542	4.30E-03
0.648	1.56909	4.30E-03
0.652	2.08858	4.30E-03
0.656	2.591	4.30E-03
0.66	3.06989	4.30E-03
0.664	3.52171	4.30E-03
0.668	3.94227	4.30E-03
0.672	4.33093	4.30E-03
0.676	4.68221	4.30E-03
0.68	4.99449	4.30E-03
0.684	5.26649	4.30E-03
0.688	5.49659	4.30E-03
0.692	5.68383	4.30E-03
0.696	5.8266	4.30E-03
0.7	5.92586	4.30E-03
0.704	5.97936	4.30E-03
0.708	5.98774	4.30E-03
0.712	5.94939	4.30E-03
0.716	5.86817	4.30E-03
0.72	5.73959	4.30E-03
0.724	5.56846	4.30E-03
0.728	5.35447	4.30E-03
0.732	5.09923	4.30E-03
0.736	4.80564	4.30E-03
0.74	4.47531	4.30E-03
0.744	4.10985	4.30E-03
0.748	3.71185	4.30E-03
0.752	3.28355	4.30E-03
0.756	2.82851	4.30E-03
0.76	2.34962	4.30E-03
0.764	1.84978	4.30E-03
0.768	1.33223	4.30E-03
0.772	0.801777	4.30E-03
0.776	0.262305	4.30E-03
0.78	-0.281677	4.30E-03
0.784	-0.825336	4.30E-03
0.788	-1.36384	4.30E-03
0.792	-1.89171	4.30E-03
0.796	-2.40314	4.30E-03
0.8	-2.89492	4.30E-03
0.804	-3.36027	4.30E-03
0.808	-3.79822	4.30E-03
0.812	-4.20363	4.30E-03
0.816	-4.57295	4.30E-03
0.82	-4.90488	4.30E-03
0.824	-5.19589	4.30E-03
0.828	-5.44662	4.30E-03
0.832	-5.65383	4.30E-03
0.836	-5.81787	4.30E-03
0.84	-5.9355	4.30E-03
0.844	-6.00865	4.30E-03
0.848	-6.03604	4.30E-03
0.852	-6.01767	4.30E-03
0.856	-5.95258	4.30E-03
0.86	-5.84204	4.30E-03
0.864	-5.68703	4.30E-03
0.868	-5.48883	4.30E-03
0.872	-5.24778	4.30E-03
0.876	-4.9674	4.30E-03
0.88	-4.64868	4.30E-03
0.884	-4.29451	4.30E-03
0.888	-3.90683	4.30E-03
0.892	-3.48788	4.30E-03
0.896	-3.03993	4.30E-03
0.9	-2.56846	4.30E-03
0.904	-2.07379	4.30E-03
0.908	-1.56042	4.30E-03
0.912	-1.0332	4.30E-03
0.916	-0.495982	4.30E-03
0.92	0.0476773	4.30E-03
0.924	0.591982	4.30E-03
0.928	1.13339	4.30E-03
0.932	1.66448	4.30E-03
0.936	2.1814	4.30E-03
0.94	2.6793	4.30E-03
0.944	3.15368	4.30E-03
0.948	3.60034	4.30E-03
0.952	4.01575	4.30E-03
0.956	4.39732	4.30E-03
0.96	4.74183	4.30E-03
0.964	5.04637	4.30E-03
0.968	5.31128	4.30E-03
0.972	5.53398	4.30E-03
0.976	5.71252	4.30E-03
0.98	5.84787	4.30E-03
0.984	5.93875	4.30E-03
0.988	5.98452	4.30E-03
0.992	5.98419	4.30E-03
0.996	5.93843	4.30E-03
1	5.84755	4.30E-03
1.004	5.71219	4.30E-03
1.008	5.53269	4.30E-03
1.012	5.31128	4.30E-03
1.016	5.04895	4.30E-03
1.02	4.74859	4.30E-03
1.024	4.4115	4.30E-03
1.028	4.04056	4.30E-03
1.032	3.63611	4.30E-03
1.036	3.20363	4.30E-03
1.04	2.74408	4.30E-03
1.044	2.26067	4.30E-03
1.048	1.75697	4.30E-03
1.052	1.23748	4.30E-03
1.056	0.704775	4.30E-03
1.06	0.163693	4.30E-03
1.064	-0.379967	4.30E-03
1.068	-0.923304	4.30E-03
1.072	-1.4602	4.30E-03
1.076	-1.98549	4.30E-03
1.08	-2.4937	4.30E-03
1.084	-2.98096	4.30E-03
1.088	-3.44244	4.30E-03
1.092	-3.87428	4.30E-03
1.096	-4.2726	4.30E-03
1.1	-4.63547	4.30E-03
1.104	-4.96064	4.30E-03
1.108	-5.24488	4.30E-03
1.112	-5.48754	4.30E-03
1.116	-5.68638	4.30E-03
1.12	-5.84268	4.30E-03